Angle	AeOpt	Ae180	Ae140	Ae140Lens	Ae140thin
-180	-2.360e+000	-1.722e+000	-7.464e+000	-2.924e+000	-2.099e+000
-179	-2.435e+000	-1.803e+000	-7.494e+000	-2.951e+000	-2.176e+000
-178	-2.662e+000	-2.046e+000	-7.585e+000	-3.030e+000	-2.410e+000
-177	-3.048e+000	-2.458e+000	-7.737e+000	-3.162e+000	-2.808e+000
-176	-3.603e+000	-3.052e+000	-7.951e+000	-3.347e+000	-3.382e+000
-175	-4.346e+000	-3.844e+000	-8.225e+000	-3.584e+000	-4.150e+000
-174	-5.299e+000	-4.859e+000	-8.561e+000	-3.873e+000	-5.142e+000
-173	-6.495e+000	-6.125e+000	-8.959e+000	-4.214e+000	-6.397e+000
-172	-7.975e+000	-7.672e+000	-9.419e+000	-4.605e+000	-7.973e+000
-171	-9.772e+000	-9.496e+000	-9.942e+000	-5.045e+000	-9.944e+000
-170	-1.186e+001	-1.146e+001	-1.053e+001	-5.533e+000	-1.237e+001
-169	-1.395e+001	-1.301e+001	-1.117e+001	-6.066e+000	-1.506e+001
-168	-1.513e+001	-1.329e+001	-1.188e+001	-6.642e+000	-1.678e+001
-167	-1.461e+001	-1.226e+001	-1.265e+001	-7.257e+000	-1.589e+001
-166	-1.313e+001	-1.078e+001	-1.348e+001	-7.907e+000	-1.372e+001
-165	-1.164e+001	-9.452e+000	-1.436e+001	-8.587e+000	-1.175e+001
-164	-1.050e+001	-8.427e+000	-1.529e+001	-9.292e+000	-1.025e+001
-163	-9.735e+000	-7.727e+000	-1.626e+001	-1.001e+001	-9.194e+000
-162	-9.351e+000	-7.331e+000	-1.724e+001	-1.075e+001	-8.513e+000
-161	-9.323e+000	-7.219e+000	-1.823e+001	-1.149e+001	-8.157e+000
-160	-9.640e+000	-7.371e+000	-1.920e+001	-1.223e+001	-8.091e+000
-159	-1.029e+001	-7.767e+000	-2.013e+001	-1.296e+001	-8.296e+000
-158	-1.124e+001	-8.375e+000	-2.100e+001	-1.369e+001	-8.754e+000
-157	-1.240e+001	-9.134e+000	-2.179e+001	-1.440e+001	-9.443e+000
-156	-1.349e+001	-9.926e+000	-2.252e+001	-1.510e+001	-1.032e+001
-155	-1.407e+001	-1.057e+001	-2.320e+001	-1.580e+001	-1.128e+001
-154	-1.383e+001	-1.085e+001	-2.386e+001	-1.652e+001	-1.214e+001
-153	-1.300e+001	-1.071e+001	-2.450e+001	-1.725e+001	-1.263e+001
-152	-1.203e+001	-1.026e+001	-2.514e+001	-1.802e+001	-1.258e+001
-151	-1.119e+001	-9.691e+000	-2.575e+001	-1.885e+001	-1.208e+001
-150	-1.059e+001	-9.171e+000	-2.628e+001	-1.976e+001	-1.138e+001
-149	-1.021e+001	-8.773e+000	-2.664e+001	-2.078e+001	-1.069e+001
-148	-9.996e+000	-8.513e+000	-2.674e+001	-2.191e+001	-1.013e+001
-147	-9.898e+000	-8.371e+000	-2.657e+001	-2.317e+001	-9.722e+000
-146	-9.873e+000	-8.305e+000	-2.618e+001	-2.453e+001	-9.472e+000
-145	-9.912e+000	-8.268e+000	-2.567e+001	-2.593e+001	-9.346e+000
-144	-1.004e+001	-8.232e+000	-2.516e+001	-2.722e+001	-9.299e+000
-143	-1.030e+001	-8.193e+000	-2.473e+001	-2.825e+001	-9.286e+000
-142	-1.070e+001	-8.179e+000	-2.446e+001	-2.896e+001	-9.272e+000
-141	-1.118e+001	-8.236e+000	-2.438e+001	-2.949e+001	-9.248e+000
-140	-1.155e+001	-8.398e+000	-2.455e+001	-3.008e+001	-9.231e+000
-139	-1.158e+001	-8.669e+000	-2.498e+001	-3.104e+001	-9.260e+000
-138	-1.120e+001	-9.001e+000	-2.575e+001	-3.262e+001	-9.380e+000
-137	-1.060e+001	-9.279e+000	-2.693e+001	-3.496e+001	-9.624e+000
-136	-1.007e+001	-9.350e+000	-2.865e+001	-3.683e+001	-1.000e+001
-135	-9.814e+000	-9.131e+000	-3.111e+001	-3.496e+001	-1.047e+001
-134	-9.921e+000	-8.688e+000	-3.470e+001	-3.134e+001	-1.094e+001
-133	-1.033e+001	-8.195e+000	-3.915e+001	-2.832e+001	-1.123e+001
-132	-1.084e+001	-7.825e+000	-3.854e+001	-2.608e+001	-1.120e+001
-131	-1.110e+001	-7.687e+000	-3.435e+001	-2.446e+001	-1.083e+001
-130	-1.089e+001	-7.823e+000	-3.132e+001	-2.336e+001	-1.026e+001
-129	-1.039e+001	-8.195e+000	-2.936e+001	-2.269e+001	-9.704e+000
-128	-9.973e+000	-8.676e+000	-2.812e+001	-2.241e+001	-9.301e+000
-127	-9.896e+000	-9.039e+000	-2.741e+001	-2.251e+001	-9.137e+000
-126	-1.021e+001	-9.070e+000	-2.711e+001	-2.299e+001	-9.241e+000
-125	-1.075e+001	-8.756e+000	-2.712e+001	-2.385e+001	-9.589e+000
-124	-1.116e+001	-8.309e+000	-2.733e+001	-2.510e+001	-1.010e+001
-123	-1.110e+001	-7.969e+000	-2.761e+001	-2.671e+001	-1.059e+001
-122	-1.067e+001	-7.873e+000	-2.778e+001	-2.844e+001	-1.084e+001
-121	-1.026e+001	-8.035e+000	-2.773e+001	-2.959e+001	-1.069e+001
-120	-1.016e+001	-8.356e+000	-2.743e+001	-2.938e+001	-1.024e+001
-119	-1.038e+001	-8.632e+000	-2.699e+001	-2.815e+001	-9.688e+000
-118	-1.071e+001	-8.656e+000	-2.655e+001	-2.678e+001	-9.247e+000
-117	-1.078e+001	-8.386e+000	-2.623e+001	-2.571e+001	-9.016e+000
-116	-1.046e+001	-7.987e+000	-2.612e+001	-2.502e+001	-9.012e+000
-115	-1.001e+001	-7.663e+000	-2.627e+001	-2.471e+001	-9.177e+000
-114	-9.735e+000	-7.521e+000	-2.672e+001	-2.477e+001	-9.395e+000
-113	-9.749e+000	-7.542e+000	-2.749e+001	-2.515e+001	-9.515e+000
-112	-9.911e+000	-7.609e+000	-2.860e+001	-2.578e+001	-9.431e+000
-111	-9.938e+000	-7.570e+000	-3.002e+001	-2.656e+001	-9.156e+000
-110	-9.676e+000	-7.354e+000	-3.156e+001	-2.720e+001	-8.805e+000
-109	-9.282e+000	-7.034e+000	-3.264e+001	-2.738e+001	-8.505e+000
-108	-9.023e+000	-6.751e+000	-3.251e+001	-2.692e+001	-8.330e+000
-107	-9.016e+000	-6.604e+000	-3.134e+001	-2.600e+001	-8.282e+000
-106	-9.147e+000	-6.594e+000	-2.993e+001	-2.495e+001	-8.299e+000
-105	-9.154e+000	-6.627e+000	-2.875e+001	-2.402e+001	-8.282e+000
-104	-8.886e+000	-6.566e+000	-2.793e+001	-2.331e+001	-8.145e+000
-103	-8.484e+000	-6.338e+000	-2.749e+001	-2.285e+001	-7.873e+000
-102	-8.209e+000	-5.999e+000	-2.744e+001	-2.264e+001	-7.536e+000
-101	-8.180e+000	-5.683e+000	-2.774e+001	-2.267e+001	-7.233e+000
-100	-8.296e+000	-5.498e+000	-2.836e+001	-2.288e+001	-7.043e+000
-99	-8.301e+000	-5.462e+000	-2.922e+001	-2.317e+001	-6.990e+000
-98	-8.029e+000	-5.497e+000	-3.011e+001	-2.339e+001	-7.041e+000
-97	-7.600e+000	-5.465e+000	-3.070e+001	-2.339e+001	-7.108e+000
-96	-7.270e+000	-5.260e+000	-3.069e+001	-2.307e+001	-7.080e+000
-95	-7.172e+000	-4.899e+000	-3.014e+001	-2.250e+001	-6.881e+000
-94	-7.229e+000	-4.502e+000	-2.936e+001	-2.181e+001	-6.526e+000
-93	-7.217e+000	-4.193e+000	-2.865e+001	-2.117e+001	-6.104e+000
-92	-6.961e+000	-4.023e+000	-2.814e+001	-2.067e+001	-5.723e+000
-91	-6.533e+000	-3.956e+000	-2.786e+001	-2.036e+001	-5.450e+000
-90	-6.155e+000	-3.891e+000	-2.779e+001	-2.023e+001	-5.305e+000
-89	-5.966e+000	-3.721e+000	-2.785e+001	-2.027e+001	-5.253e+000
-88	-5.928e+000	-3.411e+000	-2.795e+001	-2.042e+001	-5.224e+000
-87	-5.868e+000	-3.022e+000	-2.798e+001	-2.061e+001	-5.132e+000
-86	-5.635e+000	-2.653e+000	-2.789e+001	-2.077e+001	-4.921e+000
-85	-5.248e+000	-2.371e+000	-2.766e+001	-2.082e+001	-4.595e+000
-84	-4.868e+000	-2.180e+000	-2.737e+001	-2.075e+001	-4.211e+000
-83	-4.619e+000	-2.026e+000	-2.708e+001	-2.058e+001	-3.841e+000
-82	-4.496e+000	-1.836e+000	-2.686e+001	-2.038e+001	-3.536e+000
-81	-4.387e+000	-1.566e+000	-2.675e+001	-2.021e+001	-3.311e+000
-80	-4.174e+000	-1.230e+000	-2.676e+001	-2.013e+001	-3.148e+000
-79	-3.853e+000	-8.852e-001	-2.689e+001	-2.016e+001	-3.006e+000
-78	-3.524e+000	-5.861e-001	-2.710e+001	-2.031e+001	-2.841e+000
-77	-3.286e+000	-3.536e-001	-2.737e+001	-2.056e+001	-2.626e+000
-76	-3.152e+000	-1.677e-001	-2.764e+001	-2.092e+001	-2.364e+000
-75	-3.054e+000	1.539e-002	-2.786e+001	-2.135e+001	-2.088e+000
-74	-2.904e+000	2.327e-001	-2.796e+001	-2.183e+001	-1.835e+000
-73	-2.678e+000	4.897e-001	-2.788e+001	-2.236e+001	-1.636e+000
-72	-2.440e+000	7.574e-001	-2.757e+001	-2.291e+001	-1.499e+000
-71	-2.274e+000	9.941e-001	-2.701e+001	-2.348e+001	-1.415e+000
-70	-2.215e+000	1.170e+000	-2.622e+001	-2.409e+001	-1.357e+000
-69	-2.228e+000	1.284e+000	-2.523e+001	-2.474e+001	-1.299e+000
-68	-2.244e+000	1.357e+000	-2.413e+001	-2.543e+001	-1.225e+000
-67	-2.215e+000	1.422e+000	-2.295e+001	-2.613e+001	-1.137e+000
-66	-2.163e+000	1.499e+000	-2.176e+001	-2.675e+001	-1.057e+000
-65	-2.158e+000	1.587e+000	-2.059e+001	-2.709e+001	-1.019e+000
-64	-2.266e+000	1.660e+000	-1.947e+001	-2.693e+001	-1.054e+000
-63	-2.504e+000	1.681e+000	-1.842e+001	-2.624e+001	-1.185e+000
-62	-2.837e+000	1.622e+000	-1.743e+001	-2.518e+001	-1.421e+000
-61	-3.207e+000	1.474e+000	-1.652e+001	-2.398e+001	-1.759e+000
-60	-3.580e+000	1.245e+000	-1.569e+001	-2.281e+001	-2.189e+000
-59	-3.976e+000	9.524e-001	-1.492e+001	-2.174e+001	-2.700e+000
-58	-4.460e+000	6.165e-001	-1.421e+001	-2.079e+001	-3.288e+000
-57	-5.104e+000	2.419e-001	-1.357e+001	-1.994e+001	-3.968e+000
-56	-5.944e+000	-1.869e-001	-1.298e+001	-1.920e+001	-4.779e+000
-55	-6.953e+000	-7.034e-001	-1.245e+001	-1.854e+001	-5.790e+000
-54	-8.018e+000	-1.350e+000	-1.197e+001	-1.798e+001	-7.107e+000
-53	-8.904e+000	-2.168e+000	-1.155e+001	-1.750e+001	-8.886e+000
-52	-9.268e+000	-3.190e+000	-1.120e+001	-1.714e+001	-1.137e+001
-51	-8.827e+000	-4.424e+000	-1.092e+001	-1.690e+001	-1.483e+001
-50	-7.648e+000	-5.820e+000	-1.071e+001	-1.680e+001	-1.773e+001
-49	-6.078e+000	-7.186e+000	-1.056e+001	-1.682e+001	-1.498e+001
-48	-4.437e+000	-8.050e+000	-1.048e+001	-1.695e+001	-1.081e+001
-47	-2.894e+000	-7.829e+000	-1.043e+001	-1.714e+001	-7.578e+000
-46	-1.504e+000	-6.535e+000	-1.040e+001	-1.730e+001	-5.092e+000
-45	-2.671e-001	-4.749e+000	-1.033e+001	-1.727e+001	-3.098e+000
-44	8.394e-001	-2.925e+000	-1.017e+001	-1.691e+001	-1.440e+000
-43	1.839e+000	-1.245e+000	-9.859e+000	-1.613e+001	-2.529e-002
-42	2.747e+000	2.424e-001	-9.349e+000	-1.501e+001	1.200e+000
-41	3.569e+000	1.539e+000	-8.630e+000	-1.372e+001	2.274e+000
-40	4.303e+000	2.659e+000	-7.734e+000	-1.238e+001	3.217e+000
-39	4.942e+000	3.618e+000	-6.715e+000	-1.111e+001	4.041e+000
-38	5.481e+000	4.434e+000	-5.634e+000	-9.939e+000	4.754e+000
-37	5.919e+000	5.123e+000	-4.544e+000	-8.912e+000	5.361e+000
-36	6.256e+000	5.696e+000	-3.481e+000	-8.041e+000	5.866e+000
-35	6.496e+000	6.163e+000	-2.469e+000	-7.339e+000	6.270e+000
-34	6.640e+000	6.530e+000	-1.521e+000	-6.822e+000	6.575e+000
-33	6.688e+000	6.799e+000	-6.473e-001	-6.514e+000	6.781e+000
-32	6.635e+000	6.969e+000	1.542e-001	-6.452e+000	6.887e+000
-31	6.473e+000	7.036e+000	8.841e-001	-6.689e+000	6.893e+000
-30	6.187e+000	6.995e+000	1.547e+000	-7.318e+000	6.797e+000
-29	5.759e+000	6.838e+000	2.152e+000	-8.513e+000	6.596e+000
-28	5.163e+000	6.556e+000	2.711e+000	-1.064e+001	6.291e+000
-27	4.374e+000	6.144e+000	3.238e+000	-1.468e+001	5.886e+000
-26	3.371e+000	5.602e+000	3.753e+000	-2.425e+001	5.398e+000
-25	2.165e+000	4.947e+000	4.278e+000	-1.603e+001	4.863e+000
-24	8.885e-001	4.237e+000	4.837e+000	-8.621e+000	4.362e+000
-23	-2.383e-002	3.603e+000	5.450e+000	-4.067e+000	4.031e+000
-22	1.490e-001	3.282e+000	6.132e+000	-7.048e-001	4.041e+000
-21	1.574e+000	3.527e+000	6.888e+000	1.995e+000	4.513e+000
-20	3.593e+000	4.406e+000	7.714e+000	4.263e+000	5.419e+000
-19	5.645e+000	5.723e+000	8.594e+000	6.221e+000	6.610e+000
-18	7.522e+000	7.216e+000	9.509e+000	7.941e+000	7.919e+000
-17	9.188e+000	8.707e+000	1.044e+001	9.471e+000	9.230e+000
-16	1.066e+001	1.011e+001	1.136e+001	1.084e+001	1.048e+001
-15	1.196e+001	1.140e+001	1.226e+001	1.207e+001	1.164e+001
-14	1.311e+001	1.257e+001	1.313e+001	1.319e+001	1.271e+001
-13	1.413e+001	1.361e+001	1.395e+001	1.419e+001	1.368e+001
-12	1.503e+001	1.455e+001	1.472e+001	1.509e+001	1.455e+001
-11	1.583e+001	1.539e+001	1.544e+001	1.591e+001	1.533e+001
-10	1.655e+001	1.613e+001	1.609e+001	1.664e+001	1.603e+001
-9	1.717e+001	1.679e+001	1.669e+001	1.729e+001	1.665e+001
-8	1.772e+001	1.736e+001	1.722e+001	1.786e+001	1.719e+001
-7	1.819e+001	1.786e+001	1.769e+001	1.836e+001	1.766e+001
-6	1.860e+001	1.828e+001	1.809e+001	1.879e+001	1.807e+001
-5	1.894e+001	1.864e+001	1.844e+001	1.915e+001	1.840e+001
-4	1.921e+001	1.892e+001	1.872e+001	1.944e+001	1.868e+001
-3	1.942e+001	1.914e+001	1.893e+001	1.966e+001	1.889e+001
-2	1.957e+001	1.930e+001	1.909e+001	1.982e+001	1.904e+001
-1	1.966e+001	1.939e+001	1.918e+001	1.992e+001	1.913e+001
0	1.969e+001	1.943e+001	1.921e+001	1.995e+001	1.916e+001
1	1.966e+001	1.939e+001	1.918e+001	1.992e+001	1.913e+001
2	1.957e+001	1.930e+001	1.909e+001	1.982e+001	1.904e+001
3	1.942e+001	1.914e+001	1.893e+001	1.966e+001	1.889e+001
4	1.921e+001	1.892e+001	1.872e+001	1.944e+001	1.868e+001
5	1.894e+001	1.864e+001	1.844e+001	1.915e+001	1.840e+001
6	1.860e+001	1.828e+001	1.809e+001	1.879e+001	1.807e+001
7	1.819e+001	1.786e+001	1.769e+001	1.836e+001	1.766e+001
8	1.772e+001	1.736e+001	1.722e+001	1.786e+001	1.719e+001
9	1.717e+001	1.679e+001	1.669e+001	1.729e+001	1.665e+001
10	1.655e+001	1.613e+001	1.609e+001	1.664e+001	1.603e+001
11	1.583e+001	1.539e+001	1.544e+001	1.591e+001	1.533e+001
12	1.503e+001	1.455e+001	1.472e+001	1.509e+001	1.455e+001
13	1.413e+001	1.361e+001	1.395e+001	1.419e+001	1.368e+001
14	1.311e+001	1.257e+001	1.313e+001	1.319e+001	1.271e+001
15	1.196e+001	1.140e+001	1.226e+001	1.207e+001	1.164e+001
16	1.066e+001	1.011e+001	1.136e+001	1.084e+001	1.048e+001
17	9.188e+000	8.707e+000	1.044e+001	9.471e+000	9.230e+000
18	7.522e+000	7.216e+000	9.509e+000	7.941e+000	7.919e+000
19	5.645e+000	5.723e+000	8.594e+000	6.221e+000	6.610e+000
20	3.593e+000	4.406e+000	7.714e+000	4.263e+000	5.419e+000
21	1.574e+000	3.527e+000	6.888e+000	1.995e+000	4.513e+000
22	1.490e-001	3.282e+000	6.132e+000	-7.048e-001	4.041e+000
23	-2.383e-002	3.603e+000	5.450e+000	-4.067e+000	4.031e+000
24	8.885e-001	4.237e+000	4.837e+000	-8.621e+000	4.362e+000
25	2.165e+000	4.947e+000	4.278e+000	-1.603e+001	4.863e+000
26	3.371e+000	5.602e+000	3.753e+000	-2.425e+001	5.398e+000
27	4.374e+000	6.144e+000	3.238e+000	-1.468e+001	5.886e+000
28	5.163e+000	6.556e+000	2.711e+000	-1.064e+001	6.291e+000
29	5.759e+000	6.838e+000	2.152e+000	-8.513e+000	6.596e+000
30	6.187e+000	6.995e+000	1.547e+000	-7.318e+000	6.797e+000
31	6.473e+000	7.036e+000	8.841e-001	-6.689e+000	6.893e+000
32	6.635e+000	6.969e+000	1.542e-001	-6.452e+000	6.887e+000
33	6.688e+000	6.799e+000	-6.473e-001	-6.514e+000	6.781e+000
34	6.640e+000	6.530e+000	-1.521e+000	-6.822e+000	6.575e+000
35	6.496e+000	6.163e+000	-2.469e+000	-7.339e+000	6.270e+000
36	6.256e+000	5.696e+000	-3.481e+000	-8.041e+000	5.866e+000
37	5.919e+000	5.123e+000	-4.544e+000	-8.912e+000	5.361e+000
38	5.481e+000	4.434e+000	-5.634e+000	-9.939e+000	4.754e+000
39	4.942e+000	3.618e+000	-6.715e+000	-1.111e+001	4.041e+000
40	4.303e+000	2.659e+000	-7.734e+000	-1.238e+001	3.217e+000
41	3.569e+000	1.539e+000	-8.630e+000	-1.372e+001	2.274e+000
42	2.747e+000	2.424e-001	-9.349e+000	-1.501e+001	1.200e+000
43	1.839e+000	-1.245e+000	-9.859e+000	-1.613e+001	-2.529e-002
44	8.394e-001	-2.925e+000	-1.017e+001	-1.691e+001	-1.440e+000
45	-2.671e-001	-4.749e+000	-1.033e+001	-1.727e+001	-3.098e+000
46	-1.504e+000	-6.535e+000	-1.040e+001	-1.730e+001	-5.092e+000
47	-2.894e+000	-7.829e+000	-1.043e+001	-1.714e+001	-7.578e+000
48	-4.437e+000	-8.050e+000	-1.048e+001	-1.695e+001	-1.081e+001
49	-6.078e+000	-7.186e+000	-1.056e+001	-1.682e+001	-1.498e+001
50	-7.648e+000	-5.820e+000	-1.071e+001	-1.680e+001	-1.773e+001
51	-8.827e+000	-4.424e+000	-1.092e+001	-1.690e+001	-1.483e+001
52	-9.268e+000	-3.190e+000	-1.120e+001	-1.714e+001	-1.137e+001
53	-8.904e+000	-2.168e+000	-1.155e+001	-1.750e+001	-8.886e+000
54	-8.018e+000	-1.350e+000	-1.197e+001	-1.798e+001	-7.107e+000
55	-6.953e+000	-7.034e-001	-1.245e+001	-1.854e+001	-5.790e+000
56	-5.944e+000	-1.869e-001	-1.298e+001	-1.920e+001	-4.779e+000
57	-5.104e+000	2.419e-001	-1.357e+001	-1.994e+001	-3.968e+000
58	-4.460e+000	6.165e-001	-1.421e+001	-2.079e+001	-3.288e+000
59	-3.976e+000	9.524e-001	-1.492e+001	-2.174e+001	-2.700e+000
60	-3.580e+000	1.245e+000	-1.569e+001	-2.281e+001	-2.189e+000
61	-3.207e+000	1.474e+000	-1.652e+001	-2.398e+001	-1.759e+000
62	-2.837e+000	1.622e+000	-1.743e+001	-2.518e+001	-1.421e+000
63	-2.504e+000	1.681e+000	-1.842e+001	-2.624e+001	-1.185e+000
64	-2.266e+000	1.660e+000	-1.947e+001	-2.693e+001	-1.054e+000
65	-2.158e+000	1.587e+000	-2.059e+001	-2.709e+001	-1.019e+000
66	-2.163e+000	1.499e+000	-2.176e+001	-2.675e+001	-1.057e+000
67	-2.215e+000	1.422e+000	-2.295e+001	-2.613e+001	-1.137e+000
68	-2.244e+000	1.357e+000	-2.413e+001	-2.543e+001	-1.225e+000
69	-2.228e+000	1.284e+000	-2.523e+001	-2.474e+001	-1.299e+000
70	-2.215e+000	1.170e+000	-2.622e+001	-2.409e+001	-1.357e+000
71	-2.274e+000	9.941e-001	-2.701e+001	-2.348e+001	-1.415e+000
72	-2.440e+000	7.574e-001	-2.757e+001	-2.291e+001	-1.499e+000
73	-2.678e+000	4.897e-001	-2.788e+001	-2.236e+001	-1.636e+000
74	-2.904e+000	2.327e-001	-2.796e+001	-2.183e+001	-1.835e+000
75	-3.054e+000	1.539e-002	-2.786e+001	-2.135e+001	-2.088e+000
76	-3.152e+000	-1.677e-001	-2.764e+001	-2.092e+001	-2.364e+000
77	-3.286e+000	-3.536e-001	-2.737e+001	-2.056e+001	-2.626e+000
78	-3.524e+000	-5.861e-001	-2.710e+001	-2.031e+001	-2.841e+000
79	-3.853e+000	-8.852e-001	-2.689e+001	-2.016e+001	-3.006e+000
80	-4.174e+000	-1.230e+000	-2.676e+001	-2.013e+001	-3.148e+000
81	-4.387e+000	-1.566e+000	-2.675e+001	-2.021e+001	-3.311e+000
82	-4.496e+000	-1.836e+000	-2.686e+001	-2.038e+001	-3.536e+000
83	-4.619e+000	-2.026e+000	-2.708e+001	-2.058e+001	-3.841e+000
84	-4.868e+000	-2.180e+000	-2.737e+001	-2.075e+001	-4.211e+000
85	-5.248e+000	-2.371e+000	-2.766e+001	-2.082e+001	-4.595e+000
86	-5.635e+000	-2.653e+000	-2.789e+001	-2.077e+001	-4.921e+000
87	-5.868e+000	-3.022e+000	-2.798e+001	-2.061e+001	-5.132e+000
88	-5.928e+000	-3.411e+000	-2.795e+001	-2.042e+001	-5.224e+000
89	-5.966e+000	-3.721e+000	-2.785e+001	-2.027e+001	-5.253e+000
90	-6.155e+000	-3.891e+000	-2.779e+001	-2.023e+001	-5.305e+000
91	-6.533e+000	-3.956e+000	-2.786e+001	-2.036e+001	-5.450e+000
92	-6.961e+000	-4.023e+000	-2.814e+001	-2.067e+001	-5.723e+000
93	-7.217e+000	-4.193e+000	-2.865e+001	-2.117e+001	-6.104e+000
94	-7.229e+000	-4.502e+000	-2.936e+001	-2.181e+001	-6.526e+000
95	-7.172e+000	-4.899e+000	-3.014e+001	-2.250e+001	-6.881e+000
96	-7.270e+000	-5.260e+000	-3.069e+001	-2.307e+001	-7.080e+000
97	-7.600e+000	-5.465e+000	-3.070e+001	-2.339e+001	-7.108e+000
98	-8.029e+000	-5.497e+000	-3.011e+001	-2.339e+001	-7.041e+000
99	-8.301e+000	-5.462e+000	-2.922e+001	-2.317e+001	-6.990e+000
100	-8.296e+000	-5.498e+000	-2.836e+001	-2.288e+001	-7.043e+000
101	-8.180e+000	-5.683e+000	-2.774e+001	-2.267e+001	-7.233e+000
102	-8.209e+000	-5.999e+000	-2.744e+001	-2.264e+001	-7.536e+000
103	-8.484e+000	-6.338e+000	-2.749e+001	-2.285e+001	-7.873e+000
104	-8.886e+000	-6.566e+000	-2.793e+001	-2.331e+001	-8.145e+000
105	-9.154e+000	-6.627e+000	-2.875e+001	-2.402e+001	-8.282e+000
106	-9.147e+000	-6.594e+000	-2.993e+001	-2.495e+001	-8.299e+000
107	-9.016e+000	-6.604e+000	-3.134e+001	-2.600e+001	-8.282e+000
108	-9.023e+000	-6.751e+000	-3.251e+001	-2.692e+001	-8.330e+000
109	-9.282e+000	-7.034e+000	-3.264e+001	-2.738e+001	-8.505e+000
110	-9.676e+000	-7.354e+000	-3.156e+001	-2.720e+001	-8.805e+000
111	-9.938e+000	-7.570e+000	-3.002e+001	-2.656e+001	-9.156e+000
112	-9.911e+000	-7.609e+000	-2.860e+001	-2.578e+001	-9.431e+000
113	-9.749e+000	-7.542e+000	-2.749e+001	-2.515e+001	-9.515e+000
114	-9.735e+000	-7.521e+000	-2.672e+001	-2.477e+001	-9.395e+000
115	-1.001e+001	-7.663e+000	-2.627e+001	-2.471e+001	-9.177e+000
116	-1.046e+001	-7.987e+000	-2.612e+001	-2.502e+001	-9.012e+000
117	-1.078e+001	-8.386e+000	-2.623e+001	-2.571e+001	-9.016e+000
118	-1.071e+001	-8.656e+000	-2.655e+001	-2.678e+001	-9.247e+000
119	-1.038e+001	-8.632e+000	-2.699e+001	-2.815e+001	-9.688e+000
120	-1.016e+001	-8.356e+000	-2.743e+001	-2.938e+001	-1.024e+001
121	-1.026e+001	-8.035e+000	-2.773e+001	-2.959e+001	-1.069e+001
122	-1.067e+001	-7.873e+000	-2.778e+001	-2.844e+001	-1.084e+001
123	-1.110e+001	-7.969e+000	-2.761e+001	-2.671e+001	-1.059e+001
124	-1.116e+001	-8.309e+000	-2.733e+001	-2.510e+001	-1.010e+001
125	-1.075e+001	-8.756e+000	-2.712e+001	-2.385e+001	-9.589e+000
126	-1.021e+001	-9.070e+000	-2.711e+001	-2.299e+001	-9.241e+000
127	-9.896e+000	-9.039e+000	-2.741e+001	-2.251e+001	-9.137e+000
128	-9.973e+000	-8.676e+000	-2.812e+001	-2.241e+001	-9.301e+000
129	-1.039e+001	-8.195e+000	-2.936e+001	-2.269e+001	-9.704e+000
130	-1.089e+001	-7.823e+000	-3.132e+001	-2.336e+001	-1.026e+001
131	-1.110e+001	-7.687e+000	-3.435e+001	-2.446e+001	-1.083e+001
132	-1.084e+001	-7.825e+000	-3.854e+001	-2.608e+001	-1.120e+001
133	-1.033e+001	-8.195e+000	-3.915e+001	-2.832e+001	-1.123e+001
134	-9.921e+000	-8.688e+000	-3.470e+001	-3.134e+001	-1.094e+001
135	-9.814e+000	-9.131e+000	-3.111e+001	-3.496e+001	-1.047e+001
136	-1.007e+001	-9.350e+000	-2.865e+001	-3.683e+001	-1.000e+001
137	-1.060e+001	-9.279e+000	-2.693e+001	-3.496e+001	-9.624e+000
